"Temp","mean","lcl","ucl"
18,16.5570169466598,15.9590057626666,17.1550281306529
18.1,16.3823996228419,15.8004695302425,16.9643297154412
18.2,16.2115144817138,15.6451632689583,16.7778656944693
18.3,16.044252232669,15.4929939131705,16.5955105521675
18.4,15.8805075866149,15.3438716768809,16.4171434963489
18.5,15.7201790816525,15.1977099136468,16.2426482496583
18.6,15.5631689175134,15.0544249834588,16.071912851568
18.7,15.4093827982552,14.9139361262114,15.904829470299
18.8,15.2587297827539,14.7761653414209,15.7412942240868
18.9,15.1111221425551,14.6410372738633,15.5812070112468
19,14.966475226674,14.5084791048276,15.4244713485205
19.1,14.8247073329646,14.3784204487022,15.270994217227
19.2,14.6857395856923,14.2507932546258,15.1206859167587
19.3,14.5494958189775,14.1255317129556,14.9734599249994
19.4,14.4159024657885,14.0025721663193,14.8292327652577
19.5,14.2848884521861,13.8818530250335,14.6879238793387
19.6,14.1563850965403,13.7633146866833,14.5494555063973
19.7,14.0303260134544,13.6468994596739,14.4137525672348
19.8,13.9066470221456,13.5325514905702,14.2807425537209
19.9,13.785286059054,13.4202166950603,14.1503554230476
20,13.6661830944535,13.3098426923787,14.0225234965283
20.1,13.5492800528607,13.2013787430403,13.8971813626811
20.2,13.4345207370456,13.0947756897406,13.7742657843506
20.3,13.3218507554593,12.9899859012845,13.6537156096341
20.4,13.211217452906,12.8869632194127,13.5354716863993
20.5,13.1025698442931,12.7856629083954,13.4194767801908
20.6,12.9958585513076,12.6860416072717,13.3056754953435
20.7,12.89103574187,12.5880572846098,13.1940141991301
20.8,12.7880550722297,12.4916691956684,13.0844409487911
20.9,12.6868716315702,12.3968378418364,12.976905421304
21,12.5874418890017,12.3035249322321,12.8713588457712
21.1,12.4897236428243,12.2116933473353,12.7677539383134
21.2,12.3936759719518,12.1213071045289,12.6660448393748
21.3,12.299259189392,12.0323313254224,12.5661870533616
21.4,12.2064347976844,11.9447322048248,12.468137390544
21.5,12.1151654462031,11.8584769812332,12.371853911173
21.6,12.0254148902348,11.7735339087005,12.277295871769
21.7,11.9371479517501,11.6898722299414,12.1844236735588
21.8,11.8503304817874,11.6074621505356,12.0931988130393
21.9,11.7649293243753,11.526274814085,12.0035838346656
22,11.6809122819202,11.4462822781819,11.9155422856585
22.1,11.5982480819953,11.3674574910489,11.8290386729417
22.2,11.5169063454624,11.2897742687113,11.7440384222136
22.3,11.4368575558694,11.2132072725721,11.6605078391667
22.4,11.3580730300629,11.1377319872648,11.5784140728609
22.5,11.2805248899636,11.0633246986704,11.4977250812568
22.6,11.2041860354504,10.9899624719954,11.4184095989054
22.7,11.129030118305,10.917623129824,11.3404371067861
22.8,11.055031517169,10.8462852300711,11.263777804267
22.9,10.9821653134698,10.7759280437808,11.1884025831589
23,10.9104072682722,10.7065315327333,11.114283003811
23.1,10.8397338000154,10.6380763268429,11.0413912731879
23.2,10.7701219630975,10.5705437013454,10.9697002248496
23.3,10.7015494272696,10.5039155537962,10.899183300743
23.4,10.6339944578059,10.4381743809137,10.8298145346982
23.5,10.567435896417,10.3733032553209,10.761568537513
23.6,10.5018531428725,10.3092858022502,10.6944204834949
23.7,10.4372261373068,10.2461061762897,10.628346098324
23.8,10.3735353431743,10.1837490382557,10.563321648093
23.9,10.3107617308321,10.1221995322845,10.4993239293797
24,10.2488867617195,10.0614432632379,10.4363302602011
24.1,10.1878923731137,10.0014662745172,10.3743184717103
24.2,10.1277609634339,9.94225502637894,10.3132669004888
24.3,10.068475378074,9.88379637484039,10.2531543813077
24.4,10.0100188957423,9.82607755125416,10.1939602402304
24.5,9.95237521528579,9.76908614262564,10.1356642879459
24.6,9.89552844298126,9.71281007273356,10.078246813229
24.7,9.83946308027341,9.65723758410544,10.0216885764414
24.8,9.78416401194278,9.60235722088677,9.9659708029988
24.9,9.7296164946855,9.54815781263136,9.91107517673964
25,9.67580614608997,9.49462845902962,9.85698383315033
25.1,9.62271893399259,9.44175851557871,9.80367935240647
25.2,9.57034116620013,9.38953758019099,9.75114475220927
25.3,9.51865948056325,9.3379554807257,9.69936348040079
25.4,9.46766083538654,9.28700226342115,9.64831940735194
25.5,9.41733250016435,9.23666818219894,9.59799681812977
25.6,9.36766204662774,9.18694368880414,9.54838040445135
25.7,9.31863734009217,9.13781942374205,9.49945525644228
25.8,9.27024653109287,9.08928620796759,9.45120685421814
25.9,9.22247804729866,9.04133503528214,9.40362105931518
26,9.17532058569323,8.99395706539041,9.35668410599605
26.1,9.12876310501207,8.94714361756849,9.31038259245564
26.2,9.08279481842892,8.90088616489714,9.2647034719607
26.3,9.03740518647824,8.8551763290111,9.21963404394539
26.4,8.9925839102095,8.81000587532137,9.17516194509763
26.5,8.9483209245608,8.76536670866456,9.13127514045704
26.6,8.90460639194531,8.72125086933823,9.08796191455238
26.7,8.86143069604431,8.67765052948402,9.0452108626046
26.8,8.81878443579598,8.6345579897797,9.00301088181225
26.9,8.77665841957565,8.59196567640762,8.96135116274368
27,8.73504365955993,8.54986613826748,8.92022118085238
27.1,8.69393136626647,8.50825204440367,8.87961068812926
27.2,8.65331294326601,8.46711618162249,8.83950970490953
27.3,8.61317998205763,8.42645145227342,8.79990851184185
27.4,8.57352425710362,8.3862508721747,8.76079764203254
27.5,8.53433772101684,8.34650756866262,8.72216787337106
27.6,8.49561249989648,8.30721477874838,8.68401022104459
27.7,8.45734088880599,8.26836584736664,8.64631593024534
27.8,8.41951534738839,8.2299542257026,8.60907646907418
27.9,8.38212849561508,8.19197346958623,8.57228352164394
28,8.34517310966227,8.15441723794286,8.53592898138167
28.1,8.30864211791197,8.1172792912921,8.50000494453184
28.2,8.27252859707135,8.08055349028628,8.46450370385641
28.3,8.23682576840934,8.0442337942837,8.42941774253498
28.4,8.2015269941031,8.00831425994923,8.39473972825697
28.5,8.16662577369373,7.97278903987947,8.36046250750799
28.6,8.13211574064503,7.93765238124702,8.32657910004305
28.7,8.09799065900375,7.90289862446213,8.29308269354537
28.8,8.06424442015741,7.8685222018485,8.25996663846631
28.9,8.0308710396846,7.83451763633038,8.22722444303883
29,7.99786465429864,7.80087954013148,8.1948497684658
29.1,7.96521951887722,7.76760261348213,8.16283642427232
29.2,7.93293000357831,7.73468164333551,8.13117836382111
29.3,7.90099059103781,7.70211150209143,8.0998696799842
29.4,7.86939587364729,7.66988714632762,8.06890460096696
29.5,7.83814055090828,7.63800361553825,8.03827748627831
29.6,7.80721942686152,7.60645603087968,8.00798282284336
29.7,7.77662740758833,7.57523959392363,7.97801522125303
29.8,7.74635949878158,7.54434958541764,7.94836941214552
29.9,7.71641080338451,7.51378136405351,7.91904024271552
30,7.68677651929519,7.48353036524395,7.89002267334643
30.1,7.65745193713401,7.4535920999076,7.86131177436041
30.2,7.62843243807246,7.42396215326285,7.83290272288206
30.3,7.59971349172231,7.39463618363165,7.80479079981297
30.4,7.57129065408116,7.3656099212523,7.77697138691003
30.5,7.54315956553465,7.33687916710318,7.74943996396613
30.6,7.51531594891285,7.30843979173711,7.72219210608859
30.7,7.48775560759813,7.28028773412627,7.69522348106998
30.8,7.46047442368481,7.25241900051938,7.66852984685023
30.9,7.43346835618759,7.22482966331032,7.64210704906486
31,7.40673343929787,7.19751585991929,7.61595101867646
31.1,7.38026578068641,7.17047379168656,7.59005776968625
31.2,7.35406155985027,7.14369972277888,7.56442339692165
31.3,7.32811702650455,7.11718997910974,7.53904407389936
31.4,7.30242849901475,7.09094094727222,7.51391605075727
31.5,7.27699236287151,7.06494907348654,7.48903565225648
31.6,7.25180506920409,7.03921086256066,7.46439927584753
31.7,7.22686313333295,7.01372287686565,7.44000338980024
31.8,7.20216313335944,6.98848173532491,7.41584453139398
31.9,7.17770170879213,6.96348411241787,7.39191930516638
32,7.15347555920752,6.93872673719804,7.368224381217
32.1,7.1294814429465,6.91420639232617,7.34475649356683
32.2,7.10571617584232,6.88991991311718,7.32151243856745
32.3,7.08217662998168,6.86586418660222,7.29848907336114
32.4,7.05885973249732,6.84203615060556,7.27568331438907
32.5,7.03576246439028,6.81843279283562,7.25309213594494
32.6,7.01288185938225,6.795051149991,7.2307125687735
32.7,6.99021500279637,6.77188830688104,7.2085416987117
32.8,6.967759030466,6.74894139556086,7.18657666537114
32.9,6.94551112767037,6.72620759448085,7.16481466085989
33,6.92346852809651,6.70368412765047,7.14325292854254
33.1,6.90162851282735,6.68136826381681,7.12188876183788
33.2,6.87998840935342,6.65925731565644,7.1007195030504
33.3,6.85854559061001,6.63734863898232,7.0797425422377
33.4,6.83729747403701,6.61563963196397,7.05895531611005
33.5,6.81624152066163,6.59412773436167,7.03835530696158
33.6,6.7953752342035,6.57281042677432,7.01794004163268
33.7,6.77469616020113,6.55168522990077,6.99770709050149
33.8,6.75420188515982,6.5307497038148,6.97765406650485
33.9,6.73389003571896,6.51000144725261,6.95777862418531
34,6.7137582778403,6.48943809691416,6.93807845876643
34.1,6.69380431601471,6.46905732677678,6.91855130525264
34.2,6.67402589248817,6.44885684742178,6.89919493755457
34.3,6.65442078650561,6.42883440537335,6.88000716763787
34.4,6.6349868135731,6.40898778245016,6.86098584469604
34.5,6.6157218247364,6.38931479512843,6.84212885434437
34.6,6.5966237058776,6.36981329391788,6.82343411783732
34.7,6.57769037702684,6.35048116274864,6.80489959130503
34.8,6.55891979169093,6.33131631837024,6.78652326501162
34.9,6.54030993619685,6.31231670976172,6.76830316263199
35,6.52185882905092,6.29348031755329,6.75023734054856
35.1,6.50356452031211,6.27480515345869,6.73232388716553
35.2,6.48542509098009,6.25628925971856,6.71456092224161
35.3,6.46743865239698,6.2379307085545,6.69694659623947
35.4,6.44960334566291,6.21972760163352,6.6794790896923
35.5,6.43191734106463,6.20167806954291,6.66215661258635
35.6,6.41437883751688,6.18378027127493,6.64497740375884
35.7,6.39698606201682,6.16603239372189,6.62793973031175
35.8,6.37973726910999,6.14843265118045,6.61104188703954
35.9,6.36263074036874,6.1309792848659,6.59428219587158
36,6.34566478388221,6.1136705624358,6.57765900532862
36.1,6.32883773375706,6.09650477752229,6.56117068999184
36.2,6.3121479496303,6.07948024927447,6.54481564998612
36.3,6.29559381619156,6.06259532190852,6.5285923104746
36.4,6.27917374271699,6.04584836426732,6.51249912116666
36.5,6.26288616261273,6.02923776938834,6.49653455583712
36.6,6.2467295329683,6.01276195407971,6.48069711185689
36.7,6.23070233412044,5.99641935850503,6.46498530973586
36.8,6.21480306922506,5.98020844577537,6.44939769267475
36.9,6.19903026384008,5.96412770155026,6.43393282612991
37,6.18338246551577,5.94817563364537,6.41858929738618
37.1,6.16785824339489,5.93235077164846,6.40336571514132
37.2,6.15245618782095,5.91665166654252,6.38826070909939
37.3,6.13717490995465,5.90107689033604,6.37327292957326
37.4,6.12201304139928,5.8856250357009,6.35840104709765
37.5,6.10696923383281,5.87029471561658,6.34364375204903
37.6,6.09204215864907,5.85508456302196,6.32899975427617
37.7,6.07723050660537,5.83999323047309,6.31446778273765
37.8,6.06253298747844,5.82501938980832,6.30004658514856
37.9,6.04794832972672,5.81016173181912,6.28573492763431
38,6.0334752801605,5.79541896592785,6.27153159439315
